
**** 06/12/21 13:28:33 *********** Evaluation PSpice (Nov 1999) **************

 *Netlist do terceiro circuito, t>0


 ****     CIRCUIT DESCRIPTION


******************************************************************************





*Fonte de tenso 18.5 (V)
v1 1 0 dc 18.5

*Resistor de 10 (ohms)
r1 1 2 10

*Indutor de 7.4 (H)
l1 2 0 7.4

*Capacitor de 14 (mF)
c1 2 0 0.014

*Definio das condies iniciais
.ic I(l1) = 1.85
.ic V(2,0) = 4 

*Definio da partio para a anlise do regime transitrio
.tran 0.1 3 uic

*Output dos valores corrent L1, tenso C1 e R1 
.PRINT tran I(l1) V(2,0) V(1,2); Il, Vc, Vr

*Plot dos grficos
.PLOT tran I(l1)
.PLOT tran V(2,0)
.PLOT tran V(1,2)

.PROBE


**** 06/12/21 13:28:33 *********** Evaluation PSpice (Nov 1999) **************

 *Netlist do terceiro circuito, t>0


 ****     TRANSIENT ANALYSIS               TEMPERATURE =   27.000 DEG C


******************************************************************************



  TIME        I(l1)       V(2,0)      V(1,2)      

   0.000E+00   1.850E+00   4.000E+00   1.450E+01
   1.000E-01   1.887E+00   1.871E+00   1.663E+01
   2.000E-01   1.904E+00   6.445E-01   1.786E+01
   3.000E-01   1.908E+00   2.752E-02   1.847E+01
   4.000E-01   1.906E+00  -2.825E-01   1.878E+01
   5.000E-01   1.902E+00  -4.176E-01   1.892E+01
   6.000E-01   1.896E+00  -4.505E-01   1.895E+01
   7.000E-01   1.890E+00  -4.367E-01   1.894E+01
   8.000E-01   1.884E+00  -4.002E-01   1.890E+01
   9.000E-01   1.879E+00  -3.545E-01   1.885E+01
   1.000E+00   1.874E+00  -3.079E-01   1.881E+01
   1.100E+00   1.871E+00  -2.638E-01   1.876E+01
   1.200E+00   1.867E+00  -2.243E-01   1.872E+01
   1.300E+00   1.864E+00  -1.896E-01   1.869E+01
   1.400E+00   1.862E+00  -1.595E-01   1.866E+01
   1.500E+00   1.860E+00  -1.340E-01   1.863E+01
   1.600E+00   1.858E+00  -1.123E-01   1.861E+01
   1.700E+00   1.857E+00  -9.384E-02   1.859E+01
   1.800E+00   1.856E+00  -7.852E-02   1.858E+01
   1.900E+00   1.855E+00  -6.561E-02   1.857E+01
   2.000E+00   1.854E+00  -5.474E-02   1.855E+01
   2.100E+00   1.853E+00  -4.574E-02   1.855E+01
   2.200E+00   1.853E+00  -3.819E-02   1.854E+01
   2.300E+00   1.852E+00  -3.184E-02   1.853E+01
   2.400E+00   1.852E+00  -2.659E-02   1.853E+01
   2.500E+00   1.852E+00  -2.219E-02   1.852E+01
   2.600E+00   1.851E+00  -1.850E-02   1.852E+01
   2.700E+00   1.851E+00  -1.545E-02   1.852E+01
   2.800E+00   1.851E+00  -1.289E-02   1.851E+01
   2.900E+00   1.851E+00  -1.074E-02   1.851E+01
   3.000E+00   1.851E+00  -8.960E-03   1.851E+01



**** 06/12/21 13:28:33 *********** Evaluation PSpice (Nov 1999) **************

 *Netlist do terceiro circuito, t>0


 ****     TRANSIENT ANALYSIS               TEMPERATURE =   27.000 DEG C


******************************************************************************



 LEGEND:

*: I(l1)

  TIME        I(l1)       
(*)----------    1.8400E+00   1.8600E+00   1.8800E+00   1.9000E+00   1.9200E+00
                       _ _ _ _ _ _ _ _ _ _ _ _ _ _ _ _ _ _ _ _ _ _ _ _ _ _ _
  0.000E+00  1.850E+00 .      *     .            .            .            .
  1.000E-01  1.887E+00 .            .            .    *       .            .
  2.000E-01  1.904E+00 .            .            .            .  *         .
  3.000E-01  1.908E+00 .            .            .            .    *       .
  4.000E-01  1.906E+00 .            .            .            .   *        .
  5.000E-01  1.902E+00 .            .            .            .*           .
  6.000E-01  1.896E+00 .            .            .         *  .            .
  7.000E-01  1.890E+00 .            .            .     *      .            .
  8.000E-01  1.884E+00 .            .            .  *         .            .
  9.000E-01  1.879E+00 .            .           *.            .            .
  1.000E+00  1.874E+00 .            .        *   .            .            .
  1.100E+00  1.871E+00 .            .      *     .            .            .
  1.200E+00  1.867E+00 .            .    *       .            .            .
  1.300E+00  1.864E+00 .            .  *         .            .            .
  1.400E+00  1.862E+00 .            .*           .            .            .
  1.500E+00  1.860E+00 .            *            .            .            .
  1.600E+00  1.858E+00 .           *.            .            .            .
  1.700E+00  1.857E+00 .          * .            .            .            .
  1.800E+00  1.856E+00 .         *  .            .            .            .
  1.900E+00  1.855E+00 .         *  .            .            .            .
  2.000E+00  1.854E+00 .        *   .            .            .            .
  2.100E+00  1.853E+00 .        *   .            .            .            .
  2.200E+00  1.853E+00 .       *    .            .            .            .
  2.300E+00  1.852E+00 .       *    .            .            .            .
  2.400E+00  1.852E+00 .       *    .            .            .            .
  2.500E+00  1.852E+00 .       *    .            .            .            .
  2.600E+00  1.851E+00 .      *     .            .            .            .
  2.700E+00  1.851E+00 .      *     .            .            .            .
  2.800E+00  1.851E+00 .      *     .            .            .            .
  2.900E+00  1.851E+00 .      *     .            .            .            .
  3.000E+00  1.851E+00 .      *     .            .            .            .
                       - - - - - - - - - - - - - - - - - - - - - - - - - - - 



**** 06/12/21 13:28:33 *********** Evaluation PSpice (Nov 1999) **************

 *Netlist do terceiro circuito, t>0


 ****     TRANSIENT ANALYSIS               TEMPERATURE =   27.000 DEG C


******************************************************************************



 LEGEND:

*: V(2,0)

  TIME        V(2,0)      
(*)----------   -2.0000E+00   0.0000E+00   2.0000E+00   4.0000E+00   6.0000E+00
                       _ _ _ _ _ _ _ _ _ _ _ _ _ _ _ _ _ _ _ _ _ _ _ _ _ _ _
  0.000E+00  4.000E+00 .            .            .            *            .
  1.000E-01  1.871E+00 .            .           *.            .            .
  2.000E-01  6.445E-01 .            .   *        .            .            .
  3.000E-01  2.752E-02 .            *            .            .            .
  4.000E-01 -2.825E-01 .          * .            .            .            .
  5.000E-01 -4.176E-01 .         *  .            .            .            .
  6.000E-01 -4.505E-01 .         *  .            .            .            .
  7.000E-01 -4.367E-01 .         *  .            .            .            .
  8.000E-01 -4.002E-01 .         *  .            .            .            .
  9.000E-01 -3.545E-01 .          * .            .            .            .
  1.000E+00 -3.079E-01 .          * .            .            .            .
  1.100E+00 -2.638E-01 .          * .            .            .            .
  1.200E+00 -2.243E-01 .           *.            .            .            .
  1.300E+00 -1.896E-01 .           *.            .            .            .
  1.400E+00 -1.595E-01 .           *.            .            .            .
  1.500E+00 -1.340E-01 .           *.            .            .            .
  1.600E+00 -1.123E-01 .           *.            .            .            .
  1.700E+00 -9.384E-02 .           *.            .            .            .
  1.800E+00 -7.852E-02 .           *.            .            .            .
  1.900E+00 -6.561E-02 .            *            .            .            .
  2.000E+00 -5.474E-02 .            *            .            .            .
  2.100E+00 -4.574E-02 .            *            .            .            .
  2.200E+00 -3.819E-02 .            *            .            .            .
  2.300E+00 -3.184E-02 .            *            .            .            .
  2.400E+00 -2.659E-02 .            *            .            .            .
  2.500E+00 -2.219E-02 .            *            .            .            .
  2.600E+00 -1.850E-02 .            *            .            .            .
  2.700E+00 -1.545E-02 .            *            .            .            .
  2.800E+00 -1.289E-02 .            *            .            .            .
  2.900E+00 -1.074E-02 .            *            .            .            .
  3.000E+00 -8.960E-03 .            *            .            .            .
                       - - - - - - - - - - - - - - - - - - - - - - - - - - - 



**** 06/12/21 13:28:33 *********** Evaluation PSpice (Nov 1999) **************

 *Netlist do terceiro circuito, t>0


 ****     TRANSIENT ANALYSIS               TEMPERATURE =   27.000 DEG C


******************************************************************************



  TIME        V(1,2)      
(*)----------    1.4000E+01   1.6000E+01   1.8000E+01   2.0000E+01   2.2000E+01
                       _ _ _ _ _ _ _ _ _ _ _ _ _ _ _ _ _ _ _ _ _ _ _ _ _ _ _
  0.000E+00  1.450E+01 .  *         .            .            .            .
  1.000E-01  1.663E+01 .            .   *        .            .            .
  2.000E-01  1.786E+01 .            .           *.            .            .
  3.000E-01  1.847E+01 .            .            .  *         .            .
  4.000E-01  1.878E+01 .            .            .    *       .            .
  5.000E-01  1.892E+01 .            .            .     *      .            .
  6.000E-01  1.895E+01 .            .            .     *      .            .
  7.000E-01  1.894E+01 .            .            .     *      .            .
  8.000E-01  1.890E+01 .            .            .     *      .            .
  9.000E-01  1.885E+01 .            .            .     *      .            .
  1.000E+00  1.881E+01 .            .            .    *       .            .
  1.100E+00  1.876E+01 .            .            .    *       .            .
  1.200E+00  1.872E+01 .            .            .    *       .            .
  1.300E+00  1.869E+01 .            .            .   *        .            .
  1.400E+00  1.866E+01 .            .            .   *        .            .
  1.500E+00  1.863E+01 .            .            .   *        .            .
  1.600E+00  1.861E+01 .            .            .   *        .            .
  1.700E+00  1.859E+01 .            .            .   *        .            .
  1.800E+00  1.858E+01 .            .            .   *        .            .
  1.900E+00  1.857E+01 .            .            .   *        .            .
  2.000E+00  1.855E+01 .            .            .   *        .            .
  2.100E+00  1.855E+01 .            .            .   *        .            .
  2.200E+00  1.854E+01 .            .            .  *         .            .
  2.300E+00  1.853E+01 .            .            .  *         .            .
  2.400E+00  1.853E+01 .            .            .  *         .            .
  2.500E+00  1.852E+01 .            .            .  *         .            .
  2.600E+00  1.852E+01 .            .            .  *         .            .
  2.700E+00  1.852E+01 .            .            .  *         .            .
  2.800E+00  1.851E+01 .            .            .  *         .            .
  2.900E+00  1.851E+01 .            .            .  *         .            .
  3.000E+00  1.851E+01 .            .            .  *         .            .
                       - - - - - - - - - - - - - - - - - - - - - - - - - - - 




          JOB CONCLUDED

          TOTAL JOB TIME             .03
